# Test data for ascii data sea level-topography.
# Only next line is parsed in format: [nlongitude] [ncolatitude] because of keyword "POINTS:" 
# POINTS: 180 1 
# Columns: longitude (radian) InitialTopography[m]
0.0000 -3376.3916
0.0351 -3054.6867
0.0702 -2693.1056
0.1053 -2303.9548
0.1404 -1901.7746
0.1755 -1501.8209
0.2106 -1118.5465
0.2457 -764.3746
0.2808 -449.0205
0.3159 -179.4978
0.3510 39.3365
0.3861 203.8992
0.4212 310.8935
0.4563 356.6953
0.4914 337.2023
0.5265 248.3598
0.5616 87.3379
0.5967 -146.1019
0.6318 -448.2954
0.6669 -810.6281
0.7020 -1219.4528
0.7371 -1656.7811
0.7722 -2101.8656
0.8073 -2533.3074
0.8424 -2931.4037
0.8775 -3280.2104
0.9126 -3569.0810
0.9477 -3793.3659
0.9828 -3954.3396
1.0179 -4058.3024
1.0530 -4115.3362
1.0881 -4137.6847
1.1233 -4138.0001
1.1584 -4127.8674
1.1935 -4116.5241
1.2286 -4109.9234
1.2637 -4110.2116
1.2988 -4115.5986
1.3339 -4120.6996
1.3690 -4117.1931
1.4041 -4094.7453
1.4392 -4042.4700
1.4743 -3950.2050
1.5094 -3809.8921
1.5445 -3616.9833
1.5796 -3371.3353
1.6147 -3077.7629
1.6498 -2745.9925
1.6849 -2389.9310
1.7200 -2026.3446
1.7551 -1673.1061
1.7902 -1347.3155
1.8253 -1063.4976
1.8604 -832.2693
1.8955 -659.5481
1.9306 -546.4599
1.9657 -489.8708
2.0008 -483.4424
2.0359 -518.9116
2.0710 -587.4352
2.1061 -680.8815
2.1412 -792.5500
2.1763 -917.5981
2.2114 -1052.9817
2.2465 -1196.9709
2.2816 -1348.4465
2.3167 -1506.1761
2.3518 -1668.3008
2.3869 -1832.1517
2.4220 -1994.4532
2.4571 -2151.8448
2.4922 -2301.4238
2.5273 -2441.4129
2.5624 -2571.6328
2.5975 -2693.4815
2.6326 -2809.7036
2.6677 -2923.9061
2.7028 -3039.9000
2.7379 -3161.1015
2.7730 -3290.0052
2.8081 -3427.9171
2.8432 -3574.9101
2.8783 -3729.8584
2.9134 -3890.8257
2.9485 -4055.2830
2.9836 -4220.3096
3.0187 -4382.7702
3.0538 -4539.3824
3.0889 -4686.7826
3.1240 -4821.6147
3.1591 -4940.6388
3.1942 -5040.9206
3.2293 -5120.0110
3.2644 -5176.2008
3.2995 -5208.6694
3.3347 -5217.6349
3.3698 -5204.3639
3.4049 -5171.1150
3.4400 -5120.9994
3.4751 -5057.7226
3.5102 -4985.3230
3.5453 -4907.9033
3.5804 -4829.3092
3.6155 -4752.8899
3.6506 -4681.2909
3.6857 -4616.3849
3.7208 -4559.2719
3.7559 -4510.3390
3.7910 -4469.3559
3.8261 -4435.6098
3.8612 -4408.0089
3.8963 -4385.1866
3.9314 -4365.5967
3.9665 -4347.6062
4.0016 -4329.5161
4.0367 -4309.7506
4.0718 -4286.8644
4.1069 -4259.5648
4.1420 -4226.7626
4.1771 -4187.5074
4.2122 -4140.9954
4.2473 -4086.5684
4.2824 -4023.4785
4.3175 -3950.9167
4.3526 -3867.9214
4.3877 -3773.3410
4.4228 -3665.7598
4.4579 -3543.5036
4.4930 -3404.6777
4.5281 -3247.2911
4.5632 -3069.4935
4.5983 -2869.9213
4.6334 -2648.1260
4.6685 -2405.0429
4.7036 -2143.3655
4.7387 -1867.7758
4.7738 -1584.8722
4.8089 -1302.7955
4.8440 -1030.5119
4.8791 -776.8455
4.9142 -549.5409
4.9493 -354.4474
4.9844 -195.0312
5.0195 -72.3554
5.0546 14.5091
5.0897 67.7227
5.1248 89.7585
5.1599 82.4876
5.1950 46.5543
5.2301 -18.8749
5.2652 -115.9814
5.3003 -247.6856
5.3354 -416.7903
5.3705 -624.9203
5.4056 -871.5527
5.4407 -1153.3272
5.4758 -1463.6734
5.5110 -1793.1724
5.5461 -2130.3111
5.5812 -2462.6328
5.6163 -2778.1865
5.6514 -3066.7660
5.6865 -3320.9656
5.7216 -3536.8634
5.7567 -3713.9401
5.7918 -3854.6997
5.8269 -3963.9244
5.8620 -4047.6494
5.8971 -4112.1075
5.9322 -4162.7527
5.9673 -4203.4152
6.0024 -4235.6788
6.0375 -4258.5206
6.0726 -4268.2583
6.1077 -4258.8199
6.1428 -4222.4091
6.1779 -4150.4580
6.2130 -4034.7947
6.2481 -3868.9336
6.2832 -3649.3517
